4.65064779261264060750e+00
4.37193818161292568902e+00
6.49011696170517637938e+00
3.91162082275749289906e+00
3.41330940819993688962e+00
6.63167344805801217689e+00
3.76505139121144027925e+00
6.23912470472873437188e+00
3.11311621530690718629e+00
6.46176218729490248194e+00
5.88534670560873696132e+00
6.56768848970549257160e+00
4.53641203649776514339e+00
6.19970527270014759580e+00
3.26607880751122126028e+00
3.13629125320603030502e+00
4.17151869948225506590e+00
4.17345442373185893103e+00
5.21881400997443023471e+00
5.46833626117982873893e+00
5.32092153600809947278e+00
5.74306609399907674884e+00
6.65557708801929592823e+00
5.94585584715356496588e+00
4.39622913331327858089e+00
4.90198588992424788557e+00
3.99157789262752737969e+00
5.38673512434941148541e+00
4.12651307231799879816e+00
6.34766995014052515245e+00
6.08587834000015259761e+00
3.82312896039723248975e+00
4.84957162132164487645e+00
3.65413813338569193334e+00
6.28760609487253407934e+00
3.36684905841836057405e+00
6.14965396087536042558e+00
6.52474178929180403941e+00
4.83075784456170076453e+00
5.37828346769121257154e+00
6.10573535158686997448e+00
5.83338842452232153590e+00
5.62573048416427656804e+00
5.66386577674863556098e+00
5.18074369984669313993e+00
4.02731562089718320152e+00
4.98310002434737597810e+00
4.05818740009236211819e+00
3.94907546791223262872e+00
4.78585979533874450453e+00
3.48046459853643774807e+00
6.32856543151352912702e+00
4.42813981138667411841e+00
5.98953355680868426703e+00
5.05865119938327723048e+00
4.27709968939900697649e+00
5.11531199246968526495e+00
5.44734971536812739856e+00
5.79227962121123773898e+00
6.69657050044128254740e+00
4.96394600512609684984e+00
3.87447807820240441856e+00
4.57265586312587224427e+00
5.55724479794284587086e+00
6.38728620308538985739e+00
5.16619610050422028991e+00
3.17439409489486656923e+00
3.58150029004212155925e+00
6.02324251047919112523e+00
3.51647930180215961826e+00
3.23428060727998811785e+00
4.22524945507227833730e+00
4.71547202581992763726e+00
3.60806031877316035761e+00
3.07547223639473665813e+00
3.44463713447928077116e+00
3.73305376855365000921e+00
2.93698637644171256511e+00
3.02783305112379252932e+00
5.85208319328008297333e+00
2.99887982014931786523e+00
5.03129383365710669551e+00
5.27066322182417756892e+00
4.71350738858041928836e+00
4.49398828867025912359e+00
5.53479791469949944371e+00
3.69522836999731385532e+00
3.33351776070968730536e+00
5.69057970120816580817e+00
4.31332173300588372911e+00
4.60386479933701231460e+00
2.78619025130536046575e+00
2.90565147768813236695e+00
2.83540181324746454194e+00
2.81010409778463587926e+00
2.56331558657711999771e+00
2.63040972626088764841e+00
2.74993735348149392905e+00
2.68787777080551215647e+00
2.61655134400786604232e+00
