4.59057709382548306820e+00
6.12620209361304279838e+00
2.17779504720549921259e+00
4.21738126800881119038e+00
2.71451352427881875684e+00
5.11623117643564029322e+00
5.70936255777447065896e+00
5.74874469408788701941e+00
3.83067040500328115371e+00
3.70501797047439263011e+00
6.40160993831153657396e+00
3.17705688682787190658e+00
4.82455700687321176190e+00
2.06953819635086722073e+00
4.94062850815994902831e+00
6.36195281033730086762e+00
5.65507791459436948145e+00
5.02007015152569469052e+00
2.86974504906885474753e+00
6.52171634666973432104e+00
2.36751010730464184206e+00
5.90526671326263397077e+00
4.90669130877849557493e+00
6.31174724191905500703e+00
5.57745219069273723278e+00
5.41525168980394067120e+00
4.08706494587693214271e+00
4.17358211608323514952e+00
3.04628899178800827130e+00
5.98957025003397180996e+00
3.73693789410373033988e+00
5.06053331508812576089e+00
6.51560008764750975274e+00
5.30768498879730099560e+00
5.84979939827259531882e+00
2.79373802351825517576e+00
4.02524926413590034002e+00
5.22022817452003895511e+00
2.47500606297690017854e+00
6.03112515279910521571e+00
5.50085181502845532719e+00
3.44235178057176760547e+00
5.63974414781323485357e+00
6.67370454549944991385e+00
5.27780189467465810083e+00
6.07581318672337467035e+00
1.74070583437064563270e+00
5.81323298877929062201e+00
3.86376887447797878750e+00
6.45748645137967169916e+00
4.68673147818140201082e+00
4.47620945701228656333e+00
4.45421742108153573270e+00
3.22929182098921252475e+00
6.60319658754181659788e+00
2.53711189023685523836e+00
6.68587248243394505209e+00
5.35492652469643370949e+00
4.36710624146688974889e+00
2.29743962214583818948e+00
6.16221621908339223239e+00
5.47247333015838499648e+00
3.11408269646246971263e+00
4.77889178409590531516e+00
2.59508544906529792229e+00
2.11349758802925880019e+00
4.52381516168273822842e+00
3.93213476507051584719e+00
2.61827189614163513554e+00
2.42451282972090087497e+00
4.12978509891393663622e+00
1.93226272865886761210e+00
6.24534672081163488855e+00
4.34822716062295988593e+00
3.62251708556215179513e+00
4.26175004692677994456e+00
3.40004797770399180834e+00
3.51927854337996404155e+00
2.22214346086984360085e+00
4.65116136956283376946e+00
2.02637834674976069493e+00
5.12780035650496923694e+00
2.80789993794160297469e+00
2.97373668505305310816e+00
4.75972574944355386606e+00
3.55663873516466333413e+00
3.31250912357599514024e+00
3.96799336831411864068e+00
2.28343644911330967417e+00
1.85004564072609078984e+00
1.90510415547864719876e+00
2.66898320632078922543e+00
3.14048430113134457997e+00
3.66774888151954403526e+00
3.35426757726145208238e+00
2.93127654420407912639e+00
1.79711280377549043052e+00
1.70138974888280225528e+00
1.66046611107823993692e+00
1.59295377916230274096e+00
