6.60466436455238259384e+00
3.93027560154363797551e+00
6.40279140010961089757e+00
3.87129903669724262372e+00
6.65091389186189996252e+00
6.05028766262800843378e+00
6.41075438267964159422e+00
5.80368028090559118226e+00
5.21040480392109461860e+00
3.50579257336976635173e+00
6.51062365810465148996e+00
3.97954723571373225610e+00
4.96110215346182403806e+00
5.69521376757671848878e+00
6.25553605579654714575e+00
4.77400662892790883518e+00
4.59145372260723316771e+00
3.69306708943977968218e+00
4.21384579011812299143e+00
5.54943231225996846945e+00
3.41348229286164661644e+00
6.69143725050509630137e+00
4.13073003031273078278e+00
3.55160787234247887767e+00
5.88222375735677260877e+00
6.48177208552127481767e+00
5.60176386234287360111e+00
3.78201192296560639861e+00
5.73171529612412022914e+00
5.26786376385546173395e+00
6.31337362441546101621e+00
6.30872676342702209951e+00
5.04762916177153542208e+00
5.34096471432901331866e+00
3.27772726992582752459e+00
4.44323844663997924442e+00
4.04618501821535847540e+00
5.93147721197248056768e+00
5.14974692159094793453e+00
5.98082538913535000091e+00
4.63282888051220886894e+00
4.71894831723323182615e+00
4.84454901089711853501e+00
5.85273441824886120344e+00
3.64052275944653880302e+00
3.32732928695703522592e+00
4.48871381490003340531e+00
3.17035318140621980021e+00
5.49010721429814996242e+00
5.67101719614432298044e+00
6.56849981793790060891e+00
4.36957248322414493202e+00
5.45698250672090789948e+00
5.23298518204548468447e+00
2.76434732120655013432e+00
3.45733249301405942688e+00
4.54551253338637284429e+00
4.02667995334255568451e+00
4.32797844378677698529e+00
6.00774083702704597698e+00
6.19440815688618062751e+00
4.93913202237108173165e+00
5.09457630386500781583e+00
5.40428253421635940157e+00
5.37849199857038140493e+00
3.21921279472081467432e+00
3.81084085578062747857e+00
4.69008415788154131576e+00
4.99040706556186997034e+00
2.92276594279343537863e+00
3.04258199762981140779e+00
4.07380859542691275976e+00
3.71508290124947615496e+00
3.12184672241089034017e+00
3.60138361282396690655e+00
4.30017054493146577698e+00
4.87110452952128802906e+00
6.10742567343659281676e+00
4.20450453896213716121e+00
6.15875212484036893557e+00
2.51234814819686391729e+00
2.63608323455978954541e+00
3.11297465377704307699e+00
4.41137526199900786850e+00
3.36599007288479734612e+00
2.67251288827620214761e+00
2.93122986292199039227e+00
2.71181759567248104048e+00
2.83852593321936419457e+00
2.88407374963056595263e+00
2.99176740154294229512e+00
2.41437875756878517208e+00
2.52467243004493724357e+00
2.60334542896543386092e+00
2.43524137299932030842e+00
2.34336645783526664744e+00
2.17646612118783489009e+00
2.25121628665250428369e+00
2.31805520209348703276e+00
2.22741189897338198733e+00
